#[MATERIAL DEFINITION FOR MC-GPU: interaction mean free path and sampling data from PENELOPE 2006]
#[MATERIAL NAME]
# CESIUM IODIDE  (141)                                          
#[NOMINAL DENSITY (g/cm^3)]
#   4.51000000
#[NUMBER OF DATA VALUES]
#  12000
#[MEAN FREE PATHS (cm) (ie, average distance between interactions)]
#[Energy (eV)     | Rayleigh        | Compton         | Photoelectric   | TOTAL (+pair prod) (cm) | Rayleigh: max cumul prob F^2]
  5.0000000000E+03  4.4892676776E-02  5.8764356858E+00  4.2172133724E-04  4.1776685876E-04  1.3445328170E-01
  5.0100000000E+03  4.4949902186E-02  5.8675147874E+00  2.9574149859E-04  2.9379371641E-04  1.3481217148E-01
  5.0200000000E+03  4.5007086216E-02  5.8586251797E+00  2.9730830335E-04  2.9534233992E-04  1.3517105891E-01
  5.0300000000E+03  4.5064228977E-02  5.8497666908E+00  2.9888026445E-04  2.9689598686E-04  1.3552994301E-01
  5.0400000000E+03  4.5121330582E-02  5.8409391504E+00  3.0045738855E-04  2.9845466319E-04  1.3588882280E-01
  5.0500000000E+03  4.5178391142E-02  5.8321423890E+00  3.0203431912E-04  3.0001308322E-04  1.3624769732E-01
  5.0600000000E+03  4.5235410767E-02  5.8233762389E+00  3.0353200367E-04  3.0149325323E-04  1.3660656561E-01
  5.0700000000E+03  4.5292389567E-02  5.8146405334E+00  3.0503411667E-04  3.0297773526E-04  1.3696542673E-01
  5.0800000000E+03  4.5349327653E-02  5.8059351068E+00  3.0654066233E-04  3.0446653300E-04  1.3732427973E-01
  5.0900000000E+03  4.5406755950E-02  5.7972869417E+00  3.0805164488E-04  3.0595967432E-04  1.3768312368E-01
  5.1000000000E+03  4.5464236540E-02  5.7886733118E+00  3.0957220295E-04  3.0746220798E-04  1.3804195762E-01
  5.1100000000E+03  4.5521677085E-02  5.7800893154E+00  3.1109954428E-04  3.0897137437E-04  1.3840078040E-01
  5.1200000000E+03  4.5579077691E-02  5.7715347929E+00  3.1263139756E-04  3.1048493244E-04  1.3875959092E-01
  5.1300000000E+03  4.5636438463E-02  5.7630095858E+00  3.1416776721E-04  3.1200288604E-04  1.3911838811E-01
  5.1400000000E+03  4.5693759506E-02  5.7545135368E+00  3.1570865761E-04  3.1352523901E-04  1.3947717090E-01
  5.1500000000E+03  4.5751040926E-02  5.7460464898E+00  3.1725407317E-04  3.1505199517E-04  1.3983593824E-01
  5.1600000000E+03  4.5808282826E-02  5.7376082897E+00  3.1880401827E-04  3.1658315837E-04  1.4019468909E-01
  5.1700000000E+03  4.5865838848E-02  5.7292166411E+00  2.9589202345E-04  2.9398029989E-04  1.4055342240E-01
  5.1800000000E+03  4.5923627674E-02  5.7208671444E+00  2.9729814590E-04  2.9537064020E-04  1.4091213714E-01
  5.1900000000E+03  4.5981377647E-02  5.7125458838E+00  2.9875253717E-04  2.9680857507E-04  1.4127083228E-01
  5.2000000000E+03  4.6039088867E-02  5.7042527099E+00  3.0021950769E-04  2.9825887298E-04  1.4162950683E-01
  5.2100000000E+03  4.6096761436E-02  5.6959874739E+00  3.0169083939E-04  2.9971342161E-04  1.4198815976E-01
  5.2200000000E+03  4.6154395452E-02  5.6877500286E+00  3.0316653681E-04  3.0117222500E-04  1.4234679007E-01
  5.2300000000E+03  4.6211991016E-02  5.6795402273E+00  3.0464660451E-04  3.0263528717E-04  1.4270539679E-01
  5.2400000000E+03  4.6269548227E-02  5.6713579249E+00  3.0613104701E-04  3.0410261214E-04  1.4306397891E-01
  5.2500000000E+03  4.6327157463E-02  5.6632074814E+00  3.0761986884E-04  3.0557420785E-04  1.4342253547E-01
  5.2600000000E+03  4.6385265933E-02  5.6551109662E+00  3.0911307453E-04  3.0705009805E-04  1.4378106549E-01
  5.2700000000E+03  4.6443336713E-02  5.6470413714E+00  3.1061066860E-04  3.0853026348E-04  1.4413956801E-01
  5.2800000000E+03  4.6501369900E-02  5.6389985567E+00  3.1211265557E-04  3.1001470812E-04  1.4449804209E-01
  5.2900000000E+03  4.6559365589E-02  5.6309823827E+00  3.1361903996E-04  3.1150343598E-04  1.4485648677E-01
  5.3000000000E+03  4.6617323876E-02  5.6229927111E+00  3.1512982628E-04  3.1299645103E-04  1.4521490111E-01
  5.3100000000E+03  4.6675244854E-02  5.6150294044E+00  3.1664501903E-04  3.1449375726E-04  1.4557328419E-01
  5.3200000000E+03  4.6733128618E-02  5.6070923264E+00  3.1816462272E-04  3.1599535864E-04  1.4593163508E-01
  5.3300000000E+03  4.6790975262E-02  5.5991813415E+00  3.1968864185E-04  3.1750125915E-04  1.4628995287E-01
  5.3400000000E+03  4.6849153341E-02  5.5913144266E+00  3.2121708091E-04  3.1901147990E-04  1.4664823663E-01
  5.3500000000E+03  4.6907556057E-02  5.5834860646E+00  3.2274994439E-04  3.2052602019E-04  1.4700648548E-01
  5.3600000000E+03  4.6965922313E-02  5.5756832510E+00  3.2428723679E-04  3.2204487192E-04  1.4736469852E-01
  5.3700000000E+03  4.7024252199E-02  5.5679058553E+00  2.8240446867E-04  2.8070445877E-04  1.4772287486E-01
  5.3800000000E+03  4.7082545805E-02  5.5601537474E+00  2.8371271847E-04  2.8199904308E-04  1.4808101362E-01
  5.3900000000E+03  4.7140803222E-02  5.5524267983E+00  2.8502458220E-04  2.8329715717E-04  1.4843911393E-01
  5.4000000000E+03  4.7199024539E-02  5.5447248800E+00  2.8634006310E-04  2.8459880394E-04  1.4879717492E-01
  5.4100000000E+03  4.7257209845E-02  5.5370478652E+00  2.8765916442E-04  2.8590398626E-04  1.4915519573E-01
  5.4200000000E+03  4.7315359229E-02  5.5293956277E+00  2.8898188941E-04  2.8721270702E-04  1.4951317552E-01
  5.4300000000E+03  4.7374033232E-02  5.5217951837E+00  2.9030824130E-04  2.8852498996E-04  1.4987111343E-01
  5.4400000000E+03  4.7432743419E-02  5.5142226000E+00  2.9163822333E-04  2.8984082006E-04  1.5022900863E-01
  5.4500000000E+03  4.7491418340E-02  5.5066742801E+00  2.9297183874E-04  2.9116019755E-04  1.5058686032E-01
  5.4600000000E+03  4.7550058081E-02  5.4991501020E+00  2.9430909075E-04  2.9248312530E-04  1.5094466802E-01
  5.4700000000E+03  4.7608662728E-02  5.4916499445E+00  2.9564998259E-04  2.9380960617E-04  1.5130243088E-01
  5.4800000000E+03  4.7667232366E-02  5.4841736872E+00  2.9699451750E-04  2.9513964302E-04  1.5166014791E-01
  5.4900000000E+03  4.7725767080E-02  5.4767212105E+00  2.9834269868E-04  2.9647323871E-04  1.5201781816E-01
  5.5000000000E+03  4.7784266954E-02  5.4692923958E+00  2.9969452936E-04  2.9781039609E-04  1.5237544067E-01
  5.5100000000E+03  4.7842761620E-02  5.4618885386E+00  3.0105001275E-04  2.9915111917E-04  1.5273301447E-01
  5.5200000000E+03  4.7901826372E-02  5.4545369587E+00  3.0240915207E-04  3.0049543353E-04  1.5309053864E-01
  5.5300000000E+03  4.7960856940E-02  5.4472085531E+00  3.0380495021E-04  3.0187590042E-04  1.5344801223E-01
  5.5400000000E+03  4.8019853406E-02  5.4399032070E+00  3.0521148123E-04  3.0326691868E-04  1.5380543430E-01
  5.5500000000E+03  4.8078815852E-02  5.4326208064E+00  3.0662196674E-04  3.0466179507E-04  1.5416280394E-01
  5.5600000000E+03  4.8137744357E-02  5.4253612381E+00  3.0803641070E-04  3.0606053313E-04  1.5452012023E-01
  5.5700000000E+03  4.8196639003E-02  5.4181243896E+00  3.0946067777E-04  3.0746892190E-04  1.5487738225E-01
  5.5800000000E+03  4.8255499870E-02  5.4109101492E+00  3.1089532890E-04  3.0888751396E-04  1.5523458910E-01
  5.5900000000E+03  4.8314327038E-02  5.4037184060E+00  3.1233404322E-04  3.1031006889E-04  1.5559173988E-01
  5.6000000000E+03  4.8373160210E-02  5.3965509178E+00  3.1377682495E-04  3.1173659210E-04  1.5594883370E-01
  5.6100000000E+03  4.8432556819E-02  5.3894337685E+00  3.1522367827E-04  3.1316711077E-04  1.5630586966E-01
  5.6200000000E+03  4.8491920383E-02  5.3823386558E+00  3.1667460740E-04  3.1460160395E-04  1.5666284691E-01
  5.6300000000E+03  4.8551250980E-02  5.3752654723E+00  3.1812961651E-04  3.1604007539E-04  1.5701976455E-01
  5.6400000000E+03  4.8610548686E-02  5.3682141116E+00  3.1958870980E-04  3.1748252883E-04  1.5737662173E-01
  5.6500000000E+03  4.8669813578E-02  5.3611844677E+00  3.2105189146E-04  3.1892896801E-04  1.5773341758E-01
  5.6600000000E+03  4.8729045731E-02  5.3541764356E+00  3.2251916567E-04  3.2037939667E-04  1.5809015125E-01
  5.6700000000E+03  4.8788245223E-02  5.3471899107E+00  3.2399053662E-04  3.2183381853E-04  1.5844682189E-01
  5.6800000000E+03  4.8847412128E-02  5.3402247894E+00  3.2546600847E-04  3.2329223733E-04  1.5880342867E-01
  5.6900000000E+03  4.8906546521E-02  5.3332809685E+00  3.0389184810E-04  3.0199810687E-04  1.5915997074E-01
  5.7000000000E+03  4.8966243552E-02  5.3263859215E+00  3.0524173016E-04  3.0333345184E-04  1.5951644727E-01
  5.7100000000E+03  4.9025952446E-02  5.3195138770E+00  3.0659522612E-04  3.0467232660E-04  1.5987285746E-01
  5.7200000000E+03  4.9085629480E-02  5.3126627000E+00  3.0795233930E-04  3.0601473246E-04  1.6022920047E-01
  5.7300000000E+03  4.9145274727E-02  5.3058322910E+00  3.0931307301E-04  3.0736067236E-04  1.6058547549E-01
  5.7400000000E+03  4.9204888259E-02  5.2990225508E+00  3.1067743056E-04  3.0871014927E-04  1.6094168173E-01
  5.7500000000E+03  4.9264470147E-02  5.2922333811E+00  3.1204541527E-04  3.1006316614E-04  1.6129781838E-01
  5.7600000000E+03  4.9324020464E-02  5.2854646840E+00  3.1341703045E-04  3.1141972592E-04  1.6165388466E-01
  5.7700000000E+03  4.9383539281E-02  5.2787163626E+00  3.1479227940E-04  3.1277983155E-04  1.6200987977E-01
  5.7800000000E+03  4.9443026670E-02  5.2719883203E+00  3.1617116542E-04  3.1414348599E-04  1.6236580294E-01
  5.7900000000E+03  4.9502900554E-02  5.2652995454E+00  3.1755369181E-04  3.1551070921E-04  1.6272165338E-01
  5.8000000000E+03  4.9562966846E-02  5.2586409557E+00  3.1893986187E-04  3.1688149651E-04  1.6307743034E-01
  5.8100000000E+03  4.9623002361E-02  5.2520022352E+00  3.2032967890E-04  3.1825584176E-04  1.6343313305E-01
  5.8200000000E+03  4.9683007166E-02  5.2453832907E+00  3.2172314618E-04  3.1963374790E-04  1.6378876074E-01
  5.8300000000E+03  4.9742981330E-02  5.2387840294E+00  3.2312026701E-04  3.2101521786E-04  1.6414431268E-01
  5.8400000000E+03  4.9802924922E-02  5.2322043591E+00  3.2452104467E-04  3.2240025456E-04  1.6449978811E-01
  5.8500000000E+03  4.9862838010E-02  5.2256441883E+00  3.2592548244E-04  3.2378886092E-04  1.6485518630E-01
  5.8600000000E+03  4.9922720660E-02  5.2191034261E+00  3.2733358361E-04  3.2518103986E-04  1.6521050651E-01
  5.8700000000E+03  4.9982572940E-02  5.2125819819E+00  3.2874535145E-04  3.2657679430E-04  1.6556574801E-01
  5.8800000000E+03  5.0042536890E-02  5.2060861574E+00  3.3016078924E-04  3.2797613327E-04  1.6592091008E-01
  5.8900000000E+03  5.0102972395E-02  5.1996319751E+00  3.3157990026E-04  3.2937907540E-04  1.6627599200E-01
  5.9000000000E+03  5.0163378181E-02  5.1931967226E+00  3.3300268777E-04  3.3078560211E-04  1.6663099307E-01
  5.9100000000E+03  5.0223754313E-02  5.1867803123E+00  3.3442915504E-04  3.3219571630E-04  1.6698591256E-01
  5.9200000000E+03  5.0284100856E-02  5.1803826574E+00  3.3585930533E-04  3.3360942088E-04  1.6734074980E-01
  5.9300000000E+03  5.0344417875E-02  5.1740036714E+00  3.3729314191E-04  3.3502671873E-04  1.6769550407E-01
  5.9400000000E+03  5.0404705433E-02  5.1676432686E+00  3.3873066804E-04  3.3644761274E-04  1.6805017469E-01
  5.9500000000E+03  5.0464963594E-02  5.1613013637E+00  3.4017188698E-04  3.3787210582E-04  1.6840476098E-01
  5.9600000000E+03  5.0525192423E-02  5.1549778720E+00  3.4161680197E-04  3.3930020084E-04  1.6875926226E-01
  5.9700000000E+03  5.0585391982E-02  5.1486727091E+00  3.4306541628E-04  3.4073190068E-04  1.6911367785E-01
  5.9800000000E+03  5.0645973038E-02  5.1424039767E+00  3.4451773314E-04  3.4216722705E-04  1.6946800709E-01
  5.9900000000E+03  5.0706760610E-02  5.1361637284E+00  3.4597375581E-04  3.4360617510E-04  1.6982224931E-01
  6.0000000000E+03  5.0767519563E-02  5.1299414427E+00  3.4743348754E-04  3.4504873697E-04  1.7017640386E-01
  6.0100000000E+03  5.0828249957E-02  5.1237370381E+00  3.4891597757E-04  3.4651370021E-04  1.7053047008E-01
  6.0200000000E+03  5.0888951853E-02  5.1175504336E+00  3.5040231207E-04  3.4798240860E-04  1.7088444733E-01
  6.0300000000E+03  5.0949625312E-02  5.1113815487E+00  3.5189249459E-04  3.4945486529E-04  1.7123833497E-01
  6.0400000000E+03  5.1010270395E-02  5.1052303034E+00  3.5338652868E-04  3.5093107344E-04  1.7159213235E-01
  6.0500000000E+03  5.1070887161E-02  5.0990966182E+00  3.5488441790E-04  3.5241103621E-04  1.7194583886E-01
  6.0600000000E+03  5.1131475672E-02  5.0929804140E+00  3.5638616579E-04  3.5389475673E-04  1.7229945386E-01
  6.0700000000E+03  5.1192035985E-02  5.0868816122E+00  3.5789177589E-04  3.5538223816E-04  1.7265297673E-01
  6.0800000000E+03  5.1253148014E-02  5.0808254381E+00  3.5940125175E-04  3.5687351188E-04  1.7300640686E-01
  6.0900000000E+03  5.1314300708E-02  5.0747893832E+00  3.6091459691E-04  3.5836855649E-04  1.7335974364E-01
  6.1000000000E+03  5.1375425855E-02  5.0687703848E+00  3.6243181490E-04  3.5986737183E-04  1.7371298619E-01
  6.1100000000E+03  5.1436523511E-02  5.0627683670E+00  3.6395290926E-04  3.6136996103E-04  1.7406613364E-01
  6.1200000000E+03  5.1497593734E-02  5.0567832541E+00  3.6547788351E-04  3.6287632721E-04  1.7441918527E-01
  6.1300000000E+03  5.1558636582E-02  5.0508149709E+00  3.6700674120E-04  3.6438647352E-04  1.7477214037E-01
  6.1400000000E+03  5.1619652110E-02  5.0448634429E+00  3.6853948584E-04  3.6590040306E-04  1.7512499823E-01
  6.1500000000E+03  5.1680640377E-02  5.0389285958E+00  3.7007612096E-04  3.6741811896E-04  1.7547775815E-01
  6.1600000000E+03  5.1741601437E-02  5.0330103559E+00  3.7161665008E-04  3.6893962434E-04  1.7583041944E-01
  6.1700000000E+03  5.1802535348E-02  5.0271086498E+00  3.7316107671E-04  3.7046492230E-04  1.7618298139E-01
  6.1800000000E+03  5.1864088813E-02  5.0212512437E+00  3.7470940439E-04  3.7199404938E-04  1.7653544333E-01
  6.1900000000E+03  5.1925619211E-02  5.0154102662E+00  3.7626163661E-04  3.7352697587E-04  1.7688780457E-01
  6.2000000000E+03  5.1987123108E-02  5.0095854953E+00  3.7781777689E-04  3.7506370469E-04  1.7724006444E-01
  6.2100000000E+03  5.2048600558E-02  5.0037768601E+00  3.7937782874E-04  3.7660423894E-04  1.7759222226E-01
  6.2200000000E+03  5.2110051615E-02  4.9979842899E+00  3.8094179567E-04  3.7814858172E-04  1.7794427737E-01
  6.2300000000E+03  5.2171476332E-02  4.9922077146E+00  3.8250968117E-04  3.7969673613E-04  1.7829622910E-01
  6.2400000000E+03  5.2232874764E-02  4.9864470645E+00  3.8408148875E-04  3.8124870525E-04  1.7864807679E-01
  6.2500000000E+03  5.2294246963E-02  4.9807022702E+00  3.8565722191E-04  3.8280449218E-04  1.7899981980E-01
  6.2600000000E+03  5.2355592983E-02  4.9749732629E+00  3.8723688415E-04  3.8436410000E-04  1.7935145747E-01
  6.2700000000E+03  5.2416912877E-02  4.9692599740E+00  3.8882047895E-04  3.8592753180E-04  1.7970298917E-01
  6.2800000000E+03  5.2478815268E-02  4.9635881854E+00  3.9040800982E-04  3.8749482398E-04  1.8005441424E-01
  6.2900000000E+03  5.2540735680E-02  4.9579337262E+00  3.9199948023E-04  3.8906594910E-04  1.8040573207E-01
  6.3000000000E+03  5.2602630613E-02  4.9522946757E+00  3.9359489367E-04  3.9064090786E-04  1.8075694202E-01
  6.3100000000E+03  5.2664500120E-02  4.9466709674E+00  3.9519425364E-04  3.9221970333E-04  1.8110804346E-01
  6.3200000000E+03  5.2726344250E-02  4.9410625355E+00  3.9679756360E-04  3.9380233858E-04  1.8145903578E-01
  6.3300000000E+03  5.2788163055E-02  4.9354693143E+00  3.9840482704E-04  3.9538881667E-04  1.8180991835E-01
  6.3400000000E+03  5.2849956584E-02  4.9298912387E+00  4.0001604743E-04  3.9697914067E-04  1.8216069058E-01
  6.3500000000E+03  5.2911724888E-02  4.9243282438E+00  4.0163122826E-04  3.9857331362E-04  1.8251135185E-01
  6.3600000000E+03  5.2973468017E-02  4.9187802653E+00  4.0325037298E-04  4.0017133860E-04  1.8286190155E-01
  6.3700000000E+03  5.3035186021E-02  4.9132472390E+00  4.0487348507E-04  4.0177321863E-04  1.8321233911E-01
  6.3800000000E+03  5.3097341882E-02  4.9077485037E+00  4.0650056799E-04  4.0337898363E-04  1.8356266391E-01
  6.3900000000E+03  5.3159664360E-02  4.9022725189E+00  4.0813162522E-04  4.0498862127E-04  1.8391287538E-01
  6.4000000000E+03  5.3221962362E-02  4.8968111927E+00  4.0976666020E-04  4.0660212357E-04  1.8426297292E-01
  6.4100000000E+03  5.3284235936E-02  4.8913644630E+00  4.1140567641E-04  4.0821949357E-04  1.8461295597E-01
  6.4200000000E+03  5.3346485128E-02  4.8859322683E+00  4.1304867729E-04  4.0984073431E-04  1.8496282394E-01
  6.4300000000E+03  5.3408709988E-02  4.8805145470E+00  4.1469566631E-04  4.1146584882E-04  1.8531257627E-01
  6.4400000000E+03  5.3470910561E-02  4.8751112383E+00  4.1634664691E-04  4.1309484013E-04  1.8566221238E-01
  6.4500000000E+03  5.3533086896E-02  4.8697222815E+00  4.1800162254E-04  4.1472771128E-04  1.8601173172E-01
  6.4600000000E+03  5.3595239040E-02  4.8643476164E+00  4.1966059666E-04  4.1636446528E-04  1.8636113373E-01
  6.4700000000E+03  5.3657367038E-02  4.8589871829E+00  4.2132357270E-04  4.1800510515E-04  1.8671041785E-01
  6.4800000000E+03  5.3719677918E-02  4.8536494817E+00  4.2299055411E-04  4.1964964661E-04  1.8705958354E-01
  6.4900000000E+03  5.3782414272E-02  4.8483444040E+00  4.2467500693E-04  4.2131135804E-04  1.8740863025E-01
  6.5000000000E+03  5.3845127131E-02  4.8430532793E+00  4.2636463791E-04  4.2297811115E-04  1.8775755744E-01
  6.5100000000E+03  5.3907816540E-02  4.8377760496E+00  4.2805837830E-04  4.2464885363E-04  1.8810636457E-01
  6.5200000000E+03  5.3970482545E-02  4.8325126571E+00  4.2975623178E-04  4.2632358869E-04  1.8845505112E-01
  6.5300000000E+03  5.4033125190E-02  4.8272630444E+00  4.3145820199E-04  4.2800231956E-04  1.8880361655E-01
  6.5400000000E+03  5.4095744518E-02  4.8220271544E+00  4.3316429259E-04  4.2968504944E-04  1.8915206034E-01
  6.5500000000E+03  5.4158340576E-02  4.8168049304E+00  4.3487450724E-04  4.3137178154E-04  1.8950038197E-01
  6.5600000000E+03  5.4220913406E-02  4.8115963159E+00  4.3658884957E-04  4.3306251905E-04  1.8984858093E-01
  6.5700000000E+03  5.4283463052E-02  4.8064012547E+00  4.3830732325E-04  4.3475726518E-04  1.9019665670E-01
  6.5800000000E+03  5.4345989560E-02  4.8012196910E+00  4.4002993190E-04  4.3645602312E-04  1.9054460877E-01
  6.5900000000E+03  5.4408989264E-02  4.7960717793E+00  4.4175667918E-04  4.3815882842E-04  1.9089243665E-01
  6.6000000000E+03  5.4472128538E-02  4.7909437722E+00  4.4348756873E-04  4.3986566292E-04  1.9124013983E-01
  6.6100000000E+03  5.4535245323E-02  4.7858289993E+00  4.4522260418E-04  4.4157651931E-04  1.9158771781E-01
  6.6200000000E+03  5.4598339662E-02  4.7807274067E+00  4.4696178917E-04  4.4329140078E-04  1.9193517011E-01
  6.6300000000E+03  5.4661411595E-02  4.7756389404E+00  4.4870512734E-04  4.4501031050E-04  1.9228249624E-01
  6.6400000000E+03  5.4724461164E-02  4.7705635471E+00  4.5045262230E-04  4.4673325165E-04  1.9262969572E-01
  6.6500000000E+03  5.4787488411E-02  4.7655011735E+00  4.5220427770E-04  4.4846022741E-04  1.9297676805E-01
  6.6600000000E+03  5.4850493378E-02  4.7604517667E+00  4.5396009715E-04  4.5019124095E-04  1.9332371278E-01
  6.6700000000E+03  5.4913476106E-02  4.7554152741E+00  4.5572008428E-04  4.5192629545E-04  1.9367052942E-01
  6.6800000000E+03  5.4976436636E-02  4.7503916434E+00  4.5748424272E-04  4.5366539406E-04  1.9401721761E-01
  6.6900000000E+03  5.5039388068E-02  4.7453813473E+00  4.5925257608E-04  4.5540854085E-04  1.9436377697E-01
  6.7000000000E+03  5.5102965095E-02  4.7404097810E+00  4.6102508798E-04  4.5715578291E-04  1.9471020695E-01
  6.7100000000E+03  5.5166520575E-02  4.7354508262E+00  4.6280178204E-04  4.5890707910E-04  1.9505650701E-01
  6.7200000000E+03  5.5230054550E-02  4.7305044324E+00  4.6458266186E-04  4.6066243257E-04  1.9540267663E-01
  6.7300000000E+03  5.5293567058E-02  4.7255705489E+00  4.6636773105E-04  4.6242184647E-04  1.9574871528E-01
  6.7400000000E+03  5.5357058138E-02  4.7206491258E+00  4.6815699324E-04  4.6418532396E-04  1.9609462243E-01
  6.7500000000E+03  5.5420527829E-02  4.7157401131E+00  4.6995045201E-04  4.6595286818E-04  1.9644039757E-01
  6.7600000000E+03  5.5483976170E-02  4.7108434612E+00  4.7174811098E-04  4.6772448228E-04  1.9678604018E-01
  6.7700000000E+03  5.5547403200E-02  4.7059591207E+00  4.7354997374E-04  4.6950016939E-04  1.9713154975E-01
  6.7800000000E+03  5.5610808958E-02  4.7010870427E+00  4.7535604390E-04  4.7127993265E-04  1.9747692578E-01
  6.7900000000E+03  5.5674193481E-02  4.6962271782E+00  4.7716632504E-04  4.7306377520E-04  1.9782216775E-01
  6.8000000000E+03  5.5737630241E-02  4.6913823852E+00  4.7898082078E-04  4.7485170553E-04  1.9816727516E-01
  6.8100000000E+03  5.5801635527E-02  4.6865729855E+00  4.8079953469E-04  4.7664376473E-04  1.9851224753E-01
  6.8200000000E+03  5.5865620231E-02  4.6817755625E+00  4.8262247037E-04  4.7843991314E-04  1.9885708435E-01
  6.8300000000E+03  5.5929584392E-02  4.6769900687E+00  4.8444963140E-04  4.8024015391E-04  1.9920178514E-01
  6.8400000000E+03  5.5993528046E-02  4.6722164572E+00  4.8628102138E-04  4.8204449015E-04  1.9954634942E-01
  6.8500000000E+03  5.6057451229E-02  4.6674546812E+00  4.8811664388E-04  4.8385292497E-04  1.9989077669E-01
  6.8600000000E+03  5.6121353977E-02  4.6627046940E+00  4.8995650248E-04  4.8566546150E-04  2.0023506649E-01
  6.8700000000E+03  5.6185236328E-02  4.6579664493E+00  4.9180060077E-04  4.8748210285E-04  2.0057921833E-01
  6.8800000000E+03  5.6249098317E-02  4.6532399012E+00  4.9364894232E-04  4.8930285212E-04  2.0092323175E-01
  6.8900000000E+03  5.6312939980E-02  4.6485250038E+00  4.9550153071E-04  4.9112771242E-04  2.0126710628E-01
  6.9000000000E+03  5.6376761353E-02  4.6438217115E+00  4.9735836951E-04  4.9295668685E-04  2.0161084146E-01
  6.9100000000E+03  5.6440578378E-02  4.6391305990E+00  4.9921946229E-04  4.9478977975E-04  2.0195443681E-01
  6.9200000000E+03  5.6505024702E-02  4.6344762659E+00  5.0108481261E-04  4.9662704346E-04  2.0229789190E-01
  6.9300000000E+03  5.6569451392E-02  4.6298333133E+00  5.0295442404E-04  4.9846843117E-04  2.0264120626E-01
  6.9400000000E+03  5.6633858481E-02  4.6252016970E+00  5.0482830016E-04  5.0031394597E-04  2.0298437944E-01
  6.9500000000E+03  5.6698246003E-02  4.6205813731E+00  5.0670644451E-04  5.0216359096E-04  2.0332741100E-01
  6.9600000000E+03  5.6762613993E-02  4.6159722979E+00  5.0858886065E-04  5.0401736922E-04  2.0367030050E-01
  6.9700000000E+03  5.6826962484E-02  4.6113744279E+00  5.1047555215E-04  5.0587528384E-04  2.0401304749E-01
  6.9800000000E+03  5.6891291511E-02  4.6067877198E+00  5.1236652257E-04  5.0773733791E-04  2.0435565154E-01
  6.9900000000E+03  5.6955601107E-02  4.6022121306E+00  5.1426177544E-04  5.0960353449E-04  2.0469811222E-01
  7.0000000000E+03  5.7019891306E-02  4.5976476175E+00  5.1616131433E-04  5.1147387666E-04  2.0504042910E-01
  7.0100000000E+03  5.7084162141E-02  4.5930941380E+00  5.1808884076E-04  5.1337163592E-04  2.0538260175E-01
  7.0200000000E+03  5.7148413646E-02  4.5885516495E+00  5.2002080212E-04  5.1527368395E-04  2.0572462974E-01
  7.0300000000E+03  5.7213150434E-02  4.5840394444E+00  5.2195720227E-04  5.1718006558E-04  2.0606651267E-01
  7.0400000000E+03  5.7278031084E-02  4.5795443021E+00  5.2389804507E-04  5.1909075660E-04  2.0640825011E-01
  7.0500000000E+03  5.7342893058E-02  4.5750599391E+00  5.2584333439E-04  5.2100574707E-04  2.0674984165E-01
  7.0600000000E+03  5.7407736388E-02  4.5705863142E+00  5.2779307408E-04  5.2292504033E-04  2.0709128688E-01
  7.0700000000E+03  5.7472561107E-02  4.5661233866E+00  5.2974726799E-04  5.2484863975E-04  2.0743258540E-01
  7.0800000000E+03  5.7537367245E-02  4.5616711155E+00  5.3170592000E-04  5.2677654865E-04  2.0777373680E-01
  7.0900000000E+03  5.7602154835E-02  4.5572294606E+00  5.3366903393E-04  5.2870877039E-04  2.0811474069E-01
  7.1000000000E+03  5.7666923908E-02  4.5527983816E+00  5.3563661365E-04  5.3064530831E-04  2.0845559666E-01
  7.1100000000E+03  5.7731674494E-02  4.5483778386E+00  5.3760866300E-04  5.3258616573E-04  2.0879630433E-01
  7.1200000000E+03  5.7796406626E-02  4.5439677916E+00  5.3958518583E-04  5.3453134599E-04  2.0913686330E-01
  7.1300000000E+03  5.7861120334E-02  4.5395682011E+00  5.4156618598E-04  5.3648085243E-04  2.0947727319E-01
  7.1400000000E+03  5.7926019226E-02  4.5351867101E+00  5.4355166730E-04  5.3843470606E-04  2.0981753362E-01
  7.1500000000E+03  5.7991364364E-02  4.5308330619E+00  5.4554163361E-04  5.4039293329E-04  2.1015764420E-01
  7.1600000000E+03  5.8056691733E-02  4.5264896691E+00  5.4753608876E-04  5.4235549729E-04  2.1049760455E-01
  7.1700000000E+03  5.8122001365E-02  4.5221564933E+00  5.4953503659E-04  5.4432240139E-04  2.1083741430E-01
  7.1800000000E+03  5.8187293288E-02  4.5178334962E+00  5.5153848092E-04  5.4629364891E-04  2.1117707309E-01
  7.1900000000E+03  5.8252567531E-02  4.5135206397E+00  5.5354642559E-04  5.4826924317E-04  2.1151658054E-01
  7.2000000000E+03  5.8317824125E-02  4.5092178862E+00  5.5555887443E-04  5.5024918746E-04  2.1185593629E-01
  7.2100000000E+03  5.8383063098E-02  4.5049251978E+00  5.5757583126E-04  5.5223348511E-04  2.1219513997E-01
  7.2200000000E+03  5.8448284479E-02  4.5006425371E+00  5.5959729991E-04  5.5422213942E-04  2.1253419123E-01
  7.2300000000E+03  5.8513488298E-02  4.4963698670E+00  5.6162328420E-04  5.5621515369E-04  2.1287308971E-01
  7.2400000000E+03  5.8578674583E-02  4.4921071502E+00  5.6365378795E-04  5.5821253122E-04  2.1321183506E-01
  7.2500000000E+03  5.8643843364E-02  4.4878543499E+00  5.6568881497E-04  5.6021427531E-04  2.1355042693E-01
  7.2600000000E+03  5.8709440390E-02  4.4836279639E+00  5.6772836910E-04  5.6222043038E-04  2.1388886496E-01
  7.2700000000E+03  5.8775243278E-02  4.4794196200E+00  5.6977245413E-04  5.6423097970E-04  2.1422714883E-01
  7.2800000000E+03  5.8841029317E-02  4.4752210026E+00  5.7182107389E-04  5.6624590612E-04  2.1456527818E-01
  7.2900000000E+03  5.8906798534E-02  4.4710320760E+00  5.7387423218E-04  5.6826521292E-04  2.1490325268E-01
  7.3000000000E+03  5.8972550956E-02  4.4668528044E+00  5.7593193281E-04  5.7028890338E-04  2.1524107199E-01
  7.3100000000E+03  5.9038286611E-02  4.4626831525E+00  5.7799417959E-04  5.7231698079E-04  2.1557873578E-01
  7.3200000000E+03  5.9104005527E-02  4.4585230849E+00  5.8006097632E-04  5.7434944842E-04  2.1591624373E-01
  7.3300000000E+03  5.9169707729E-02  4.4543725667E+00  5.8213232681E-04  5.7638630956E-04  2.1625359549E-01
  7.3400000000E+03  5.9235393245E-02  4.4502315628E+00  5.8420823485E-04  5.7842756747E-04  2.1659079076E-01
  7.3500000000E+03  5.9301062102E-02  4.4461000387E+00  5.8628870424E-04  5.8047322542E-04  2.1692782921E-01
  7.3600000000E+03  5.9366714327E-02  4.4419779597E+00  5.8837373878E-04  5.8252328668E-04  2.1726471052E-01
  7.3700000000E+03  5.9432349947E-02  4.4378652914E+00  5.9046334226E-04  5.8457775452E-04  2.1760143437E-01
  7.3800000000E+03  5.9498530391E-02  4.4337824754E+00  5.9255751848E-04  5.8663668712E-04  2.1793800046E-01
  7.3900000000E+03  5.9564802731E-02  4.4297128662E+00  5.9465627122E-04  5.8870004402E-04  2.1827440847E-01
  7.4000000000E+03  5.9631059121E-02  4.4256524880E+00  5.9675960427E-04  5.9076781795E-04  2.1861065809E-01
  7.4100000000E+03  5.9697299586E-02  4.4216013074E+00  5.9886752143E-04  5.9284001218E-04  2.1894674903E-01
  7.4200000000E+03  5.9763524152E-02  4.4175592912E+00  6.0098002646E-04  5.9491662995E-04  2.1928268098E-01
  7.4300000000E+03  5.9829732843E-02  4.4135264064E+00  6.0309712317E-04  5.9699767453E-04  2.1961845364E-01
  7.4400000000E+03  5.9895925685E-02  4.4095026200E+00  6.0521881532E-04  5.9908314915E-04  2.1995406672E-01
  7.4500000000E+03  5.9962102703E-02  4.4054878994E+00  6.0734510669E-04  6.0117305706E-04  2.2028951992E-01
  7.4600000000E+03  6.0028263923E-02  4.4014822120E+00  6.0947600106E-04  6.0326740150E-04  2.2062481295E-01
  7.4700000000E+03  6.0094409368E-02  4.3974855254E+00  6.1161150221E-04  6.0536618570E-04  2.2095994553E-01
  7.4800000000E+03  6.0160539064E-02  4.3934978074E+00  6.1375161390E-04  6.0746941291E-04  2.2129491736E-01
  7.4900000000E+03  6.0226653036E-02  4.3895190259E+00  6.1589633991E-04  6.0957708635E-04  2.2162972816E-01
  7.5000000000E+03  6.0293299433E-02  4.3855688086E+00  6.1804568401E-04  6.1168926605E-04  2.2196437766E-01
  7.5100000000E+03  6.0360052670E-02  4.3816317710E+00  6.2019964996E-04  6.1380591173E-04  2.2229886558E-01
  7.5200000000E+03  6.0426790839E-02  4.3777034996E+00  6.2235824152E-04  6.1592701405E-04  2.2263319164E-01
  7.5300000000E+03  6.0493513962E-02  4.3737839633E+00  6.2452146247E-04  6.1805257622E-04  2.2296735557E-01
  7.5400000000E+03  6.0560222063E-02  4.3698731311E+00  6.2668931655E-04  6.2018260147E-04  2.2330135710E-01
  7.5500000000E+03  6.0626915165E-02  4.3659709722E+00  6.2886180753E-04  6.2231709302E-04  2.2363519596E-01
  7.5600000000E+03  6.0693593292E-02  4.3620774559E+00  6.3103893917E-04  6.2445605408E-04  2.2396887188E-01
  7.5700000000E+03  6.0760256466E-02  4.3581925517E+00  6.3322071521E-04  6.2659948786E-04  2.2430238462E-01
  7.5800000000E+03  6.0826904711E-02  4.3543162291E+00  6.3540713942E-04  6.2874739757E-04  2.2463573389E-01
  7.5900000000E+03  6.0893538050E-02  4.3504484579E+00  6.3759821554E-04  6.3089978643E-04  2.2496891946E-01
  7.6000000000E+03  6.0960156506E-02  4.3465892081E+00  6.3979394732E-04  6.3305665763E-04  2.2530194105E-01
  7.6100000000E+03  6.1026760101E-02  4.3427384497E+00  6.4199433852E-04  6.3521801437E-04  2.2563479843E-01
  7.6200000000E+03  6.1093752175E-02  4.3389103814E+00  6.4419939286E-04  6.3738390406E-04  2.2596749134E-01
  7.6300000000E+03  6.1160997512E-02  4.3351001276E+00  6.4640911411E-04  6.3955431561E-04  2.2630001953E-01
  7.6400000000E+03  6.1228228645E-02  4.3312982038E+00  6.4862350599E-04  6.4172922305E-04  2.2663238275E-01
  7.6500000000E+03  6.1295445596E-02  4.3275045809E+00  6.5084257225E-04  6.4390862955E-04  2.2696458077E-01
  7.6600000000E+03  6.1362648386E-02  4.3237192299E+00  6.5306631663E-04  6.4609253832E-04  2.2729661335E-01
  7.6700000000E+03  6.1429837036E-02  4.3199421220E+00  6.5529474286E-04  6.4828095254E-04  2.2762848024E-01
  7.6800000000E+03  6.1497011567E-02  4.3161732286E+00  6.5752785467E-04  6.5047387539E-04  2.2796018122E-01
  7.6900000000E+03  6.1564172002E-02  4.3124125212E+00  6.5976565580E-04  6.5267131005E-04  2.2829171604E-01
  7.7000000000E+03  6.1631318362E-02  4.3086599713E+00  6.6200814998E-04  6.5487325971E-04  2.2862308448E-01
